F1,F2,F3,F4,F5,ID,X,Y,Class
-84.761887,31.184496,10.3,15.9,56.28,13,713276.744997,3452206.58417,0
-84.76191,31.184556,9.3,15.7,56.557,15,713274.409038,3452213.1695,0
-84.761918,31.184575,8.5,15.4,56.635,16,713273.5449,3452215.3481,0
-84.761926,31.184595,7.5,14.6,56.676,17,713272.737728,3452217.53894,0
-84.761935,31.184615,6.7,13.1,56.746,18,713271.902858,3452219.68485,0
-84.761943,31.184635,6.3,10.8,56.796,19,713271.085931,3452221.88658,0
-84.761953,31.184654,6.8,10.0,56.77,20,713270.043163,3452223.93956,0
-84.761961,31.184673,6.2,9.5,56.829,21,713269.274118,3452226.13117,0
-84.761968,31.184694,7.6,11.4,56.901,22,713268.571121,3452228.35739,0
-84.761976,31.184714,7.3,10.4,56.942,23,713267.773482,3452230.54842,0
-84.761983,31.184734,7.2,12.0,56.959,24,713267.030789,3452232.85148,0
-84.761991,31.184755,6.0,11.3,56.991,25,713266.192557,3452235.16369,0
-84.761999,31.184776,6.3,10.5,57.053,26,713265.402207,3452237.46578,0
-84.762006,31.184797,5.3,9.7,57.111,27,713264.639778,3452239.80172,0
-84.762014,31.184819,4.8,8.9,57.137,28,713263.905721,3452242.14931,0
-84.762021,31.18484,5.1,9.8,57.165,29,713263.171663,3452244.49691,0
-84.762028,31.184862,5.8,11.4,57.183,30,713262.427402,3452246.87757,0
-84.762036,31.184883,5.4,11.8,57.203,31,713261.616868,3452249.23472,0
-84.762044,31.184904,5.2,12.0,57.15,32,713260.87328,3452251.58212,0
-84.762051,31.184926,5.2,10.5,57.145,33,713260.110405,3452253.94022,0
-84.762058,31.184947,5.4,11.6,57.133,34,713259.348203,3452256.26507,0
-84.762066,31.184968,5.7,10.7,57.14,35,713258.595085,3452258.61228,0
-84.762073,31.18499,5.9,10.1,57.109,36,713257.841742,3452260.97058,0
-84.762081,31.185011,4.9,9.8,57.06,37,713257.060702,3452263.28395,0
-84.762089,31.185032,4.8,9.3,57.064,38,713256.279439,3452265.60841,0
-84.762096,31.185053,5.4,9.1,57.045,39,713255.545384,3452267.95601,0
-84.762103,31.185074,5.3,7.7,57.011,40,713254.773204,3452270.30283,0
-84.762111,31.185095,5.4,8.4,56.982,41,713254.03074,3452272.59481,0
-84.762118,31.185117,4.9,7.8,56.96,42,713253.258112,3452274.96381,0
-84.762127,31.18514,5.4,7.5,56.937,43,713252.424705,3452277.50904,0
-84.762135,31.185165,5.2,7.0,56.904,44,713251.595671,3452280.30946,0
-84.762144,31.18519,6.3,8.4,56.863,45,713250.691955,3452283.03073,0
-84.762152,31.185215,5.8,8.4,56.826,46,713249.835449,3452285.77513,0
-84.76216,31.18524,5.4,7.2,56.835,47,713249.045663,3452288.52089,0
-84.762168,31.185264,5.2,7.2,56.851,48,713248.227956,3452291.23281,0
-84.762176,31.185288,4.0,6.9,56.87,49,713247.410923,3452293.91147,0
-84.762184,31.185313,3.8,7.2,56.902,50,713246.526945,3452296.59986,0
-84.762194,31.185337,3.7,8.0,56.947,51,713245.594861,3452299.30947,0
-84.762202,31.185362,3.5,7.9,56.935,52,713244.70068,3452302.03093,0
-84.762211,31.185387,3.3,8.7,56.969,53,713243.78766,3452304.74092,0
-84.76222,31.185412,3.5,9.8,56.959,54,713242.940912,3452307.47443,0
-84.762228,31.185437,3.7,9.1,56.966,55,713242.074878,3452310.21865,0
-84.762237,31.185461,3.5,9.2,56.929,56,713241.162083,3452312.91755,0
-84.762246,31.185486,4.0,9.7,56.935,57,713240.267231,3452315.67228,0
-84.762254,31.185511,3.5,9.5,56.883,58,713239.40187,3452318.38323,0
-84.762263,31.185536,3.9,10.2,56.862,59,713238.526306,3452321.12725,0
-84.762272,31.18556,3.7,9.2,56.851,60,713237.650966,3452323.86019,0
-84.76228,31.185585,3.6,8.7,56.834,61,713236.775851,3452326.58204,0
-84.762289,31.18561,3.4,7.5,56.806,62,713235.881673,3452329.3035,0
-84.762299,31.185634,3.6,7.4,56.79,63,713234.930083,3452332.03489,0
-84.762307,31.18566,3.6,8.1,56.762,64,713234.082442,3452334.81276,0
-84.762316,31.185684,2.9,7.8,56.746,65,713233.178958,3452337.52294,0
-84.762325,31.185709,3.6,6.7,56.726,66,713232.285007,3452340.23332,0
-84.762334,31.185734,3.2,6.7,56.684,67,713231.352032,3452342.98727,0
-84.762342,31.185759,3.3,7.1,56.626,68,713230.486452,3452345.70931,0
-84.762351,31.185783,3.4,7.0,56.595,69,713229.611115,3452348.44225,0
-84.76236,31.185808,2.9,6.4,56.57,70,713228.641587,3452351.11782,0
-84.762369,31.185833,2.4,6.5,56.551,71,713227.737433,3452353.86127,0
-84.762377,31.185858,3.0,6.5,56.523,72,713226.899775,3452356.61715,0
-84.762386,31.185882,2.6,6.5,56.501,73,713226.043503,3452359.35047,0
-84.762394,31.185907,2.7,6.2,56.488,74,713225.196539,3452362.09507,0
-84.762403,31.185932,2.4,6.3,56.479,75,713224.301918,3452364.83871,0
-84.762411,31.185957,2.9,6.3,56.461,76,713223.435891,3452367.58292,0
-84.76242,31.185982,3.1,6.6,56.436,77,713222.607542,3452370.35009,0
-84.762429,31.186007,3.6,6.7,56.395,78,713221.608974,3452373.04726,0
-84.762439,31.186032,3.6,6.5,56.394,79,713220.628123,3452375.81133,0
-84.762447,31.186056,3.1,6.3,56.347,80,713219.810204,3452378.53434,0
-84.762456,31.186082,3.7,7.3,56.329,81,713218.943507,3452381.31181,0
-84.762464,31.186107,3.5,7.3,56.294,82,713218.067951,3452384.05584,0
-84.762472,31.186132,3.8,7.4,56.286,83,713217.287262,3452386.82396,0
-84.762481,31.186156,3.9,7.3,56.262,84,713216.393766,3452389.51217,0
-84.76249,31.186181,3.7,7.9,56.287,85,713215.480086,3452392.25542,0
-84.762499,31.186206,3.7,8.4,56.258,86,713214.529178,3452394.95356,0
-84.762508,31.18623,4.2,9.6,56.225,87,713213.654298,3452397.66432,0
-84.762516,31.186255,3.5,8.7,56.212,88,713212.788725,3452400.38636,0
-84.762525,31.18628,3.4,8.3,56.216,89,713211.922255,3452403.15275,0
-84.762534,31.186304,4.3,9.2,56.185,90,713211.018781,3452405.86294,0
-84.762543,31.186329,3.6,9.0,56.163,91,713210.095797,3452408.59491,0
-84.762551,31.186354,4.4,9.1,56.155,92,713209.286741,3452411.35137,0
-84.762559,31.186379,3.8,8.6,56.131,93,713208.468154,3452414.10764,0
-84.762567,31.186404,3.4,7.8,56.121,94,713207.573989,3452416.82911,0
-84.762576,31.186429,3.8,7.0,56.121,95,713206.680049,3452419.53948,0
-84.762586,31.186453,4.4,7.2,56.112,96,713205.738452,3452422.2489,0
-84.762594,31.186478,4.0,6.9,56.11,97,713204.901701,3452424.96043,0
-84.762603,31.186502,3.7,7.1,56.111,98,713203.979841,3452427.63697,0
-84.762612,31.186527,3.4,7.2,56.164,99,713203.09476,3452430.38081,0
-84.76262,31.186552,4.1,7.5,56.136,100,713202.238275,3452433.12522,0
-84.762629,31.186577,3.7,7.7,56.12,101,713201.305987,3452435.84591,0
-84.762637,31.186601,3.9,8.1,56.121,102,713200.449951,3452438.56815,0
-84.762646,31.186626,4.1,9.0,56.1,103,713199.546483,3452441.27833,0
-84.762656,31.186651,4.9,9.2,56.09,104,713198.594909,3452444.00973,0
-84.762664,31.186675,5.1,9.7,56.097,105,713197.786531,3452446.73293,0
-84.762672,31.1867,4.5,8.3,56.127,106,713196.892371,3452449.4544,0
-84.762681,31.186725,4.4,9.9,56.154,107,713196.064482,3452452.19939,0
-84.762689,31.18675,4.4,10.2,56.137,108,713195.170099,3452454.93194,0
-84.762698,31.186774,4.1,9.5,56.154,109,713194.314514,3452457.632,0
-84.762707,31.186799,4.0,9.0,56.176,110,713193.372698,3452460.35251,0
-84.762713,31.186824,3.4,9.0,56.271,111,713192.734989,3452463.12352,0
-84.762722,31.186849,3.1,7.5,56.285,112,713191.859221,3452465.87864,0
-84.762731,31.186873,3.0,7.3,56.258,113,713190.937367,3452468.55518,0
-84.76274,31.186898,2.9,6.7,56.253,114,713190.042761,3452471.29882,0
-84.762748,31.186923,2.7,6.4,56.212,115,713189.17675,3452474.04304,0
-84.762758,31.186948,3.0,7.4,56.229,116,713188.216099,3452476.75207,0
-84.762766,31.186973,3.0,9.3,56.203,117,713187.387541,3452479.53032,0
-84.762775,31.186998,3.7,9.1,56.194,118,713186.502693,3452482.26306,0
-84.762783,31.187023,3.4,9.8,56.12,119,713185.599006,3452484.98434,0
-84.762792,31.187047,3.8,9.3,56.056,120,713184.71371,3452487.73926,0
-84.7628,31.187072,3.9,8.8,56.009,121,713183.886051,3452490.47316,0
-84.762809,31.187097,4.9,10.0,55.997,122,713182.953548,3452493.20494,0
-84.76282,31.187122,3.9,8.3,55.93,123,713181.917098,3452495.89026,0
-84.762829,31.187147,4.6,8.9,55.908,124,713180.993005,3452498.67767,0
-84.762838,31.187172,3.8,8.3,55.87,125,713180.050972,3452501.40926,0
-84.762847,31.187197,3.8,8.8,55.811,126,713179.156147,3452504.16398,0
-84.762855,31.187221,3.3,8.4,55.752,127,713178.290365,3452506.89712,0
-84.762864,31.187247,3.6,7.6,55.673,128,713177.414379,3452509.66332,0
-84.762872,31.187272,3.0,7.6,55.634,129,713176.576518,3452512.43029,0
-84.762881,31.187297,3.2,6.6,55.595,130,713175.672164,3452515.18482,0
-84.762889,31.187322,2.8,6.4,55.555,131,713174.824773,3452517.9516,0
-84.762898,31.187347,2.7,6.1,55.483,132,713173.949461,3452520.68454,0
-84.762907,31.187372,2.6,6.3,55.467,133,713173.054639,3452523.43927,0
-84.762915,31.187397,2.3,5.9,55.436,134,713172.254906,3452526.20701,0
-84.762923,31.187421,2.6,6.2,55.402,135,713171.351226,3452528.92829,0
-84.762933,31.187446,2.6,6.4,55.373,136,713170.418504,3452531.67116,0
-84.762941,31.187471,3.4,6.6,55.328,137,713169.54297,3452534.41518,0
-84.76295,31.187496,2.3,5.9,55.267,138,713168.658354,3452537.13684,0
-84.762959,31.187521,2.2,5.7,55.23,139,713167.744696,3452539.8801,0
-84.762967,31.187546,2.1,5.1,55.17,140,713166.888002,3452542.6356,1
-84.762976,31.187571,1.3,3.9,55.204,141,713165.963468,3452545.44518,1
-84.762985,31.187596,1.4,4.1,55.151,142,713165.049362,3452548.21061,1
-84.762995,31.187621,1.5,3.6,55.116,143,713164.087601,3452550.97508,1
-84.763005,31.187647,1.4,3.8,55.073,144,713163.106778,3452553.73916,1
-84.763014,31.187671,1.4,3.4,55.05,145,713162.116872,3452556.48087,1
-84.763023,31.187696,1.5,3.3,54.961,146,713161.222055,3452559.2356,1
-84.763032,31.187722,1.3,3.6,54.938,147,713160.364018,3452562.05762,1
-84.76304,31.187747,1.4,3.6,54.877,148,713159.563617,3452564.85862,1
-84.763048,31.187773,1.4,3.9,54.836,149,713158.724419,3452567.69212,1
-84.763056,31.187799,1.5,4.2,54.814,150,713157.866608,3452570.50305,1
-84.763064,31.187824,1.7,4.7,54.748,151,713157.037839,3452573.29239,1
-84.763073,31.187849,1.8,4.9,54.684,152,713156.189783,3452576.09243,1
-84.76308,31.187875,2.0,5.7,54.654,153,713155.379405,3452578.91542,1
-84.763089,31.1879,2.1,6.5,54.62,154,713154.512287,3452581.71507,0
-84.763098,31.187925,2.5,7.5,54.603,155,713153.617026,3452584.49197,0
-84.763106,31.187951,2.3,7.3,54.551,156,713152.741051,3452587.25818,0
-84.763115,31.187976,2.6,8.3,54.534,157,713151.807216,3452590.05648,0
-84.763124,31.188,4.3,9.1,54.479,158,713150.91375,3452592.74469,0
-84.763133,31.188025,5.2,11.1,54.498,159,713150.019835,3452595.45507,0
-84.763141,31.18805,5.7,10.2,54.545,160,713149.201498,3452598.20026,0
-84.76315,31.188075,5.3,10.4,54.63,161,713148.307135,3452600.93281,0
-84.763158,31.188099,4.5,8.9,54.653,162,713147.470409,3452603.64435,0
-84.763167,31.188124,3.7,8.2,54.74,163,713146.566516,3452606.37671,0
-84.763176,31.188149,3.9,8.1,54.762,164,713145.681013,3452609.14272,0
-84.763184,31.188175,4.2,8.3,54.837,165,713144.823432,3452611.94257,0
-84.763193,31.1882,4.4,9.1,54.862,166,713143.928623,3452614.6973,0
-84.763202,31.188225,4.2,8.5,54.913,167,713143.024059,3452617.46293,0
-84.763211,31.18825,4.1,9.4,54.928,168,713142.053225,3452620.20503,0
-84.76322,31.188275,4.0,9.5,54.919,169,713141.157745,3452622.99302,0
-84.763229,31.1883,3.6,8.9,54.9,170,713140.262713,3452625.75883,0
-84.763237,31.188325,3.1,9.1,54.882,171,713139.405358,3452628.5476,0
-84.763246,31.188351,3.8,9.4,54.865,172,713138.481285,3452631.33501,0
-84.763254,31.188377,3.5,9.3,54.83,173,713137.698835,3452634.19183,0
-84.763261,31.188402,3.6,9.5,54.815,174,713136.93612,3452637.01578,0
-84.763271,31.188428,2.9,7.8,54.845,175,713135.992762,3452639.8139,0
-84.763282,31.188452,3.3,8.6,54.76,176,713134.898251,3452642.5424,0
-84.763291,31.188478,2.7,7.5,54.758,177,713133.983487,3452645.3411,0
-84.763299,31.188503,3.1,7.5,54.638,178,713133.125014,3452648.18529,0
-84.763308,31.188529,3.1,7.1,54.618,179,713132.191637,3452650.96143,0
-84.763317,31.188554,2.9,7.7,54.616,180,713131.28663,3452653.74922,0
-84.763326,31.188579,2.8,7.0,54.588,181,713130.353703,3452656.50318,0
-84.763335,31.188605,3.4,7.0,54.609,182,713129.456882,3452659.3577,0
-84.763344,31.18863,3.7,7.1,54.563,183,713128.590673,3452662.11301,0
-84.763353,31.188655,3.5,7.4,54.556,184,713127.676361,3452664.88952,0
-84.763361,31.18868,3.8,7.5,54.587,185,713126.790642,3452667.66662,0
-84.76337,31.188706,3.2,7.1,54.63,186,713125.875658,3452670.4764,0
-84.763379,31.188732,3.4,6.7,54.676,187,713124.987698,3452673.36437,0
-84.763388,31.188757,3.1,6.3,54.655,188,713124.111063,3452676.16383,0
-84.763396,31.188782,3.0,5.9,54.63,189,713123.263695,3452678.93061,0
-84.763404,31.188808,3.7,7.1,54.604,190,713122.444697,3452681.70906,0
-84.763413,31.188833,3.9,7.6,54.61,191,713121.520856,3452684.48539,0
-84.763423,31.188858,4.2,8.3,54.58,192,713120.568871,3452687.23896,0
-84.763431,31.188883,3.8,9.2,54.585,193,713119.66342,3452690.04893,0
-84.76344,31.188908,3.9,8.8,54.594,194,713118.768623,3452692.80366,0
-84.763448,31.188934,4.5,11.1,54.557,195,713117.921257,3452695.57045,0
-84.763457,31.188959,4.2,11.1,54.554,196,713117.016256,3452698.35825,0
-84.763467,31.188983,4.0,13.6,54.505,197,713116.093988,3452701.05697,0
-84.763475,31.189009,4.0,13.0,54.484,198,713115.188988,3452703.84476,0
-84.763483,31.189034,4.7,15.6,54.464,199,713114.378403,3452706.67884,0
-84.763492,31.189059,4.6,13.2,54.421,200,713113.445035,3452709.45497,0
-84.763511,31.18911,5.3,13.9,54.382,202,713111.587158,3452715.0407,0
-84.76352,31.189135,5.0,11.6,54.33,203,713110.69214,3452717.80651,0
-84.763529,31.189161,5.0,11.8,54.304,204,713109.786919,3452720.6054,0
-84.763537,31.189186,3.9,9.7,54.28,205,713108.920046,3452723.39397,0
-84.763545,31.189211,3.5,9.7,54.259,206,713108.081319,3452726.20529,0
-84.763554,31.189237,3.6,8.7,54.201,207,713107.214447,3452728.99387,0
-84.763562,31.189262,3.2,7.4,54.176,208,713106.406108,3452731.71707,0
-84.763569,31.189287,4.6,8.4,54.224,209,713105.642509,3452734.58537,0
-84.763577,31.189313,4.8,8.0,54.212,210,713104.775639,3452737.37394,0
-84.763581,31.189339,3.8,7.6,54.253,211,713104.355384,3452740.23809,0
-84.763592,31.189363,3.9,7.5,54.227,212,713103.328055,3452742.94578,0
-84.7636,31.189389,3.6,7.4,54.245,213,713102.498637,3452745.76838,0
-84.763608,31.189414,4.2,8.7,54.219,214,713101.613827,3452748.50114,0
-84.763617,31.189439,4.2,9.1,54.215,215,713100.719486,3452751.23369,0
-84.763626,31.189464,4.1,8.7,54.219,216,713099.814942,3452753.99932,0
-84.763635,31.189489,3.1,8.0,54.22,217,713098.939216,3452756.75444,0
-84.763643,31.189514,2.8,7.4,54.196,218,713098.082328,3452759.52103,0
-84.763652,31.189539,3.3,7.6,54.238,219,713097.206378,3452762.28724,0
-84.76366,31.189564,3.0,7.1,54.226,220,713096.311143,3452765.06414,0
-84.763669,31.189589,2.5,5.8,54.213,221,713095.396397,3452767.86284,1
-84.763678,31.189615,2.6,4.9,54.222,222,713094.481875,3452770.65045,1
-84.763687,31.18964,2.1,3.9,54.194,223,713093.605479,3452773.43882,1
-84.763695,31.189666,2.5,4.4,54.175,224,713092.737941,3452776.26066,1
-84.763704,31.18969,3.4,6.7,54.149,225,713091.85336,3452778.98232,0
-84.763713,31.189715,4.2,6.8,54.184,226,713090.94882,3452781.74795,0
-84.763722,31.18974,4.0,7.3,54.183,227,713090.00638,3452784.50172,0
-84.763731,31.189765,4.6,7.9,54.188,228,713089.140637,3452787.23486,0
-84.76374,31.189791,4.2,7.3,54.223,229,713088.168933,3452790.02131,0
-84.763748,31.189816,3.9,7.8,54.219,230,713087.397381,3452792.81181,0
-84.763757,31.189841,4.5,9.4,54.239,231,713086.530518,3452795.60038,0
-84.763766,31.189866,4.6,9.7,54.233,232,713085.616449,3452798.36582,0
-84.763774,31.189891,4.3,11.0,54.271,233,713084.740505,3452801.13202,0
-84.763783,31.189917,4.7,8.6,54.278,234,713083.816458,3452803.91944,0
-84.763791,31.189942,4.4,7.5,54.34,235,713083.005887,3452806.75352,0
-84.7638,31.189968,5.0,8.6,54.328,236,713082.110433,3452809.54151,0
-84.763809,31.189993,4.0,7.7,54.306,237,713081.205001,3452812.35148,0
-84.763818,31.190018,5.3,8.6,54.271,238,713080.300017,3452815.13929,0
-84.763826,31.190044,4.9,8.3,54.243,239,713079.433606,3452817.90569,0
-84.763835,31.190068,5.3,7.3,54.237,240,713078.548358,3452820.66061,0
-84.763844,31.190094,4.8,6.4,54.241,241,713077.653579,3452823.41535,0
-84.763852,31.190119,4.9,6.8,54.252,242,713076.768332,3452826.17027,0
-84.763861,31.190144,4.1,5.8,54.221,243,713075.91123,3452828.94795,0
-84.763869,31.190169,3.2,5.5,54.209,244,713075.073414,3452831.71493,0
-84.763878,31.190194,3.2,5.3,54.218,245,713074.178637,3452834.46967,1
-84.763887,31.190219,3.1,4.6,54.233,246,713073.274329,3452837.22421,1
-84.763896,31.190244,3.7,4.7,54.216,247,713072.379104,3452840.00112,1
-84.763904,31.190269,3.6,4.7,54.221,248,713071.464593,3452842.78873,1
-84.763914,31.190294,3.9,4.9,54.213,249,713070.512856,3452845.53122,1
-84.763923,31.190319,3.8,4.8,54.208,250,713069.589488,3452848.28537,1
-84.763932,31.190344,2.9,5.7,54.235,251,713068.656589,3452851.03934,0
-84.763941,31.190369,2.9,6.1,54.26,252,713067.752284,3452853.79388,0
-84.76395,31.190394,2.9,6.5,54.294,253,713066.848203,3452856.53734,0
-84.763959,31.190419,4.2,8.5,54.32,254,713065.982023,3452859.29265,0
-84.763968,31.190444,3.6,8.1,54.338,255,713065.068412,3452862.03591,0
-84.763976,31.190469,3.6,9.6,54.368,256,713064.183619,3452864.76867,0
-84.763985,31.190494,3.5,8.8,54.423,257,713063.298601,3452867.51251,0
-84.763993,31.190519,3.9,7.9,54.446,258,713062.470322,3452870.27968,0
-84.764001,31.190544,3.8,9.1,54.505,259,713061.642267,3452873.03576,0
-84.76401,31.190569,3.6,9.3,54.516,260,713060.776089,3452875.79108,0
-84.764019,31.190593,3.8,7.0,54.51,261,713059.87246,3452878.51236,0
-84.764029,31.190618,3.6,7.1,54.633,262,713058.797722,3452881.208,0
-84.764038,31.190643,3.9,7.9,54.689,263,713057.902952,3452883.96273,0
-84.764046,31.190668,3.7,7.9,54.72,264,713057.046083,3452886.72933,0
-84.764055,31.190693,3.7,7.6,54.751,265,713056.151313,3452889.48406,0
-84.764064,31.190718,3.5,8.5,54.83,266,713055.256096,3452892.26097,0
-84.764072,31.190744,3.1,7.3,54.863,267,713054.399003,3452895.03865,0
-84.764081,31.190769,2.8,6.1,54.909,268,713053.542135,3452897.80525,0
-84.764089,31.190794,2.4,5.9,54.957,269,713052.704777,3452900.55005,0
-84.764098,31.190818,2.3,6.2,55.009,270,713051.791397,3452903.28223,0
-84.764107,31.190844,2.2,5.9,55.061,271,713050.905713,3452906.05933,0
-84.764116,31.190868,2.2,5.5,55.105,272,713049.973719,3452908.76895,0
-84.764134,31.190917,2.0,5.4,55.199,273,713048.100203,3452914.18799,1
-84.764143,31.190942,1.7,5.3,55.264,274,713047.196131,3452916.93145,1
-84.764152,31.190967,1.9,4.6,55.301,275,713046.329959,3452919.68677,1
-84.764161,31.190992,2.1,5.4,55.366,276,713045.407051,3452922.41875,0
-84.76417,31.191017,2.6,6.0,55.425,277,713044.494122,3452925.12875,0
-84.764179,31.191042,2.8,5.7,55.487,278,713043.599583,3452927.8724,0
-84.764303,31.191388,4.1,7.9,57.295,279,713030.97527,3452966.08183,0
-84.764308,31.191401,4.1,8.5,57.284,280,713030.498178,3452967.51405,0
-84.764313,31.191419,4.3,8.6,57.298,281,713029.91569,3452969.44325,0
-84.764321,31.19144,4.0,8.3,57.341,282,713029.153128,3452971.79029,0
-84.764329,31.191465,3.7,7.2,57.389,283,713028.307147,3452974.49055,0
-84.764338,31.191489,3.8,7.6,57.441,284,713027.431677,3452977.23459,0
-84.764348,31.191515,3.7,7.3,57.398,285,713026.393734,3452979.99752,0
-84.764357,31.19154,3.5,7.7,57.349,286,713025.518264,3452982.74156,0
-84.764365,31.191564,2.9,6.9,57.387,287,713024.623734,3452985.48521,0
-84.764374,31.191589,2.7,6.0,57.432,288,713023.757347,3452988.25161,0
-84.764383,31.191614,2.9,5.9,57.476,289,713022.84398,3452990.98379,0
-84.764392,31.191639,3.1,5.8,57.515,290,713021.920634,3452993.73795,0
-84.764401,31.191664,3.0,5.6,57.506,291,713021.02588,3452996.49269,0
-84.76441,31.191689,3.4,5.2,57.541,292,713020.103207,3452999.21359,0
-84.764419,31.191714,3.4,5.4,57.576,293,713019.236599,3453001.99108,0
-84.764427,31.191739,3.7,6.3,57.593,294,713018.379746,3453004.75768,0
-84.764436,31.191764,4.1,7.0,57.63,295,713017.485219,3453007.50133,0
-84.764444,31.191789,4.5,8.3,57.686,296,713016.618836,3453010.26773,0
-84.764453,31.191814,5.4,9.5,57.732,297,713015.724309,3453013.01138,0
-84.764461,31.191838,5.8,8.4,57.756,298,713014.916905,3453015.69025,0
